-6.3519
-5.5799
-3.0905
-5.3306
-6.2284
-3.7599
-7.1189
-5.2057
-1.6257
-4.9306
-5.2921
-5.1314
-5.6989
-3.3502
-7.8806
-2.9628
-4.7789
-6.1795
-4.6559
-3.5397
-6.5445
-4.8467
-4.6796
-4.9566
-5.4379
-5.6156
-3.8329
-6.8054
-5.4921
-1.7558
-6.2102
-3.9839
-7.1106
-5.3637
-3.227
-3.8864
-6.193
-3.4515
-5.4084
-5.1916
-4.8623
-4.9497
-5.5571
-4.025
-4.5775
-4.9049
-5.2008
-3.855
-5.146
-4.9836
-4.9446
-4.8554
-4.8931
-6.2956
-3.0598
-4.1766
-4.7032
-6.2834
-4.0938
-5.6439
-4.1906
-6.3544
-3.969
-6.3445
-2.7757
-6.1845
-5.4194
-3.3559
-5.5436
-5.8186
-2.5436
-4.0606
-6.1115
-3.8668
-5.5349
-4.2765
-5.352
-3.8061
-6.2349
-4.1216
-4.7124
-5.8892
-3.4183
-5.8912
-5.518
-3.4969
-4.4272
-4.3882
-5.1683
-3.1656
-5.0888
-6.9762
-3.2456
-5.4801
-4.6545
-5.4246
-4.0481
-4.4543
-5.951
-3.8544
-3.5301
-5.8497
-5.1027
-5.0186
-3.8271
-6.2525
-4.5472
-5.1497
-5.2806
-4.1613
-3.4365
-6.378
-5.4267
-3.6966
-7.1575
-4.0109
-4.7712
-3.9016
-3.9126
-5.4022
-2.6595
-6.6992
-4.7156
-4.3217
-3.6439
-6.2994
-4.012
-5.3624
-5.2719
-5.6168
-4.2733
-5.7411
-4.9246
-3.743
-5.3941
-6.6448
-3.4659
-3.4354
-5.9953
-5.9367
-3.3171
-5.3603
-3.4381
-4.1252
-4.2828
-5.1754
-4.0552
-6.2312
-4.228
-3.674
-5.2618
-4.0857
-3.8006
-6.0785
-5.8055
-6.5608
-2.4171
-5.4291
-6.5512
-3.6111
-4.8713
-4.2323
-6.1843
-5.0921
-4.9467
-4.4778
-5.2175
-4.1175
-5.6317
-5.9157
-6.7725
-4.3049
-4.9278
-5.8116
-5.9864
-4.6182
-4.7367
-4.8723
-5.216
-4.1667
-5.3416
-3.0623
-3.9541
-3.5208
-5.5368
-4.5713
-6.333
-3.4762
-5.8681
-5.3733
-2.9483
-5.6576
-4.5685
-5.5717
-5.3929
-4.2611
-4.4758
-6.91
-3.2311
-5.6051
-6.8464
-1.65
-4.8701
-6.815
-3.8257
-3.9917
-5.7296
-4.1277
-5.5105
-6.3497
-5.033
-4.1508
-5.8174
-4.8538
-3.4256
-7.178
-3.5098
-5.4402
-3.2804
-4.1963
-7.0065
-3.9163
-5.7683
-4.9169
-4.1072
-6.0575
-4.585
-4.7963
-4.9554
-5.9914
-4.0526
-5.5122
-4.9875
-4.5264
-7.0251
-1.494
-6.3705
-4.7672
-3.0855
-5.2325
-5.1244
-4.5948
-4.7783
-4.5247
-4.4659
-3.3818
-4.4001
-7.9631
-2.1366
-5.6242
-5.2706
-5.3496
-5.1981
-5.8168
-6.9847
-4.2131
-3.2483
-5.2167
-6.771
-4.4021
-4.2107
-7.1332
-2.8091
-3.1931
-6.8337
-4.2711
-4.7857
-4.7976
-5.1114
-5.0691
-3.0258
-5.4825
-4.6425
-3.3697
-6.0595
-5.4959
-3.9158
-6.8569
-4.161
-4.1667
-6.333
-3.8615
-5.4832
-3.5174
-7.4185
-5.2399
-4.3613
-6.5451
-4.9379
-4.7433
-7.343
-1.6687
-6.1225
-5.6177
-3.1555
-5.5791
-4.9896
-3.2631
-6.7929
-2.8167
-3.6469
-6.814
-4.4508
-5.2111
-4.9253
-3.589
-6.834
-2.9896
-4.7556
-5.0516
-3.6511
-4.6904
-4.8958
-3.7718
-6.1636
-3.9725
-3.8675
-7.8693
-3.1754
-3.5768
-5.7242
-6.7657
-3.2077
-5.4349
-4.7784
-3.6403
-4.4643
-4.3276
-5.0025
-2.4535
-5.7902
-5.1579
-1.7475
-6.3968
-6.2657
-4.6507
-3.8971
-6.7755
-5.277
-2.6003
-6.0799
-4.5622
-4.8279
-4.2542
-4.1421
-6.865
-2.6337
-4.6759
-5.9493
-4.3456
-5.8229
-3.972
-5.6389
-4.1158
-3.9083
-6.1255
-4.2639
-3.952
-5.0751
-5.0543
-5.2196
-4.3172
-4.1465
-4.151
-5.4611
-5.2904
-3.7544
-6.2379
-3.4835
-5.7492
-5.4259
-2.7888
-6.0418
-5.7558
-4.3325
-5.2507
-4.3502
-5.796
-4.6196
-4.5204
-7.5596
-2.5109
-5.2429
-4.5622
-4.5813
-6.0834
-4.0497
-4.2984
-4.036
-6.3665
-3.9937
-4.0657
-5.2458
-5.5801
-2.7395
-5.4704
-5.0674
-4.0583
-4.9177
-4.8323
-2.9748
-4.921
-6.1359
-4.655
-4.7766
-3.9448
-8.1404
-3.6768
-1.0807
-9.0607
-5.1646
-1.3826
-6.1219
-6.7396
-2.0723
-4.681
-5.0928
-4.8268
-4.275
-5.1977
-4.8911
-0.96771
-7.7533
-4.2212
-3.7631
-6.6648
-4.0896
-3.9737
-6.7583
-3.2628
-6.2371
-4.6435
-3.9759
-4.3169
-6.8238
-1.9109
-5.5068
-6.3876
-4.4894
-4.526
-5.0322
-3.1274
-6.5421
-2.1361
-5.5448
-4.0974
-5.7172
-4.2252
-5.5217
-4.7658
-3.6461
-6.088
-4.0198
-4.4169
-5.0872
-5.4307
-5.065
-3.9897
-5.3935
-5.7027
-4.6603
-3.6268
-5.3886
-4.9058
-4.179
-5.9457
-6.2306
-3.6242
-5.0798
-4.7304
-5.4322
-4.2726
-3.4266
-7.8494
-2.7565
-6.2065
-4.393
-4.5471
-4.8863
-5.0213
-6.4474
-4.2473
-4.466
-3.8925
-6.5397
-5.0007
-3.5416
-5.4159
-6.6296
-3.262
-5.7813
-3.1525
-6.4928
-4.1687
-4.0208
-5.0486
-3.8328
-4.0323
-6.3075
-5.5241

