-3.8315
-5.7658
-4.178
-5.1512
-4.276
-7.7033
-3.1868
-3.5375
-6.5599
-2.3318
-5.2937
-4.3623
-5.4128
-6.8329
-3.5093
-5.1476
-3.9662
-5.0363
-6.0686
-3.9011
-3.8854
-5.9641
-4.2319
-5.2076
-4.5295
-2.7347
-5.3185
-3.9359
-4.2284
-5.5593
-4.1242
-6.7952
-4.9555
-2.2306
-6.5099
-3.2555
-5.46
-5.0379
-5.8198
-4.2618
-3.0771
-5.853
-5.3287
-3.6674
-6.8163
-4.9544
-3.1317
-6.2499
-3.8204
-4.3391
-4.8032
-6.5013
-7.0875
-2.153
-4.48
-6.1774
-3.761
-4.1961
-3.7373
-5.8023
-4.8685
-2.6926
-6.1319
-2.3896
-6.1403
-5.7952
-3.7586
-5.6096
-3.4329
-6.0939
-5.777
-4.7307
-3.6859
-5.4289
-5.4036
-2.8243
-6.0684
-4.564
-5.3682
-4.9657
-4.6101
-3.9916
-5.3147
-6.761
-3.4197
-6.0377
-4.8382
-4.8029
-4.9067
-4.8804
-3.9964
-4.323
-7.1184
-3.6184
-4.0886
-8.4644
-3.3449
-4.2078
-4.4218
-3.9432
-6.4276
-5.4303
-4.7085
-7.3241
-2.065
-6.4789
-4.3328
-5.0305
-4.475
-5.0648
-4.7457
-5.6725
-3.6831
-4.1446
-7.909
-2.6798
-6.1079
-4.009
-5.759
-4.2855
-3.0517
-5.5659
-6.7391
-2.4613
-5.5722
-6.5467
-2.8631
-4.7175
-6.7233
-3.1611
-4.8334
-5.8803
-2.4203
-5.2122
-5.4293
-4.7386
-8.1448
-3.376
-4.4682
-5.7971
-3.5029
-5.6171
-4.5308
-5.3453
-3.3688
-4.9519
-4.7494
-5.7639
-3.3015
-4.3202
-7.2543
-2.9866
-4.9542
-6.2701
-3.2877
-3.8097
-6.1313
-5.5704
-3.928
-4.3762
-5.6124
-5.3191
-3.9644
-3.9825
-7.4257
-5.465
-4.7246
-2.1651
-7.7898
-5.108
-4.4513
-3.7841
-4.7728
-5.118
-3.5828
-7.2313
-5.5888
-3.046
-5.2617
-5.3084
-5.1044
-3.9101
-2.6924
-7.4143
-4.5555
-5.1104
-4.2271
-5.1542
-3.5868
-5.2342
-6.5485
-2.94
-5.8663
-5.6653
-5.0332
-3.6833
-4.6447
-5.0562
-5.4169
-3.7601
-4.6135
-5.1333
-4.3728
-5.131
-3.4062
-5.2311
-6.3712
-3.7765
-5.8906
-3.0368
-4.9532
-4.1631
-6.2647
-3.7853
-4.5512
-5.0452
-5.0938
-4.4474
-3.9461
-7.8717
-0.94116
-7.3066
-4.2713
-4.3159
-5.8349
-4.3426
-4.3913
-5.8113
-3.126
-6.9272
-4.9984
-3.7393
-5.189
-3.818
-5.543
-4.9544
-4.8601
-4.0701
-5.5568
-3.4524
-5.4268
-7.3264
-3.3054
-3.6145
-7.3813
-2.8042
-5.5493
-2.9884
-4.4628
-4.1213
-5.5506
-4.2149
-5.9718
-4.1332
-4.0201
-6.2655
-5.31
-4.8167
-5.0567
-6.1687
-2.9293
-4.6521
-7.4349
-2.6052
-6.2209
-5.708
-5.2352
-4.6032
-4.3316
-4.6896
-6.593
-4.8847
-2.3984
-6.4615
-3.2872
-4.7356
-6.2945
-2.1947
-7.4979
-2.8855
-4.5002
-7.2851
-4.4593
-4.2332
-7.4901
-4.2312
-4.4193
-3.5945
-5.2328
-4.3144
-4.4883
-4.4325
-6.8757
-3.7753
-3.934
-6.2179
-5.5885
-3.3613
-3.5558
-6.3255
-5.2728
-3.6113
-6.5671
-4.9533
-4.6767
-4.4593
-4.0117
-5.9136
-4.205
-5.0172
-4.6494
-4.6858
-3.3462
-5.5439
-6.3876
-3.8149
-4.1625
-5.4664
-4.4903
-3.5434
-6.3795
-3.3565
-4.7075
-7.0497
-3.9495
-3.2586
-6.6306
-3.2175
-4.521
-7.7919
-3.1885
-3.4476
-6.2665
-4.9229
-3.0475
-4.9975
-2.7027
-4.2521
-5.1668
-3.8189
-6.3626
-5.5487
-3.5633
-5.8121
-4.4563
-5.9287
-5.2209
-2.4111
-7.4591
-4.9842
-2.2487
-5.7149
-4.6476
-4.7495
-5.0478
-5.1971
-5.5781
-3.736
-6.721
-2.9905
-6.4039
-5.2377
-4.0819
-4.624
-5.8932
-3.6277
-3.7461
-6.7614
-2.6502
-4.6372
-5.2517
-5.2114
-5.5709
-3.1906
-5.7805
-4.5269
-5.3004
-4.597
-2.7418
-5.3369
-4.6346
-3.8448
-6.5602
-4.4092
-3.9618
-5.782
-3.8997
-5.6664
-2.9822
-4.3364
-6.0003
-4.5253
-4.0108
-5.9674
-5.0037
-6.3772
-2.6255
-5.5065
-3.5655
-7.0082
-2.668
-2.6039
-7.6465
-3.9128
-3.4109
-4.1558
-6.291
-5.0879
-4.0306
-5.2417
-6.1223
-3.7356
-4.9384
-5.3167
-5.9571
-4.005
-3.9398
-5.8485
-4.91
-5.3008
-3.7031
-6.1133
-3.2661
-4.1888
-6.2403
-5.0526
-2.3693
-6.4648
-4.9955
-3.4701
-6.6512
-3.9883
-4.9206
-5.6145
-4.8224
-4.7137
-5.5273
-4.6335
-5.0794
-6.671
-3.6655
-4.3959
-5.2234
-4.1604
-5.5376
-4.1844
-4.9051
-3.8952
-5.4282
-6.5194
-3.46
-5.3534
-5.4066
-2.6169
-6.395
-5.7169
-3.9427
-5.184
-5.2013
-4.8219
-3.5306
-5.4857
-5.0479
-5.318
-5.0488
-6.6882
-5.2768
-4.2142
-5.0497
-5.5377
-4.3057
-6.8831
-5.1725
-4.9485
-5.3129
-3.9201
-5.3155
-5.0085
-7.0051
-3.0292
-6.0567
-4.5388
-6.811
-4.8302
-4.8999
-6.2546
-3.6443
-5.3059
-4.4631
-4.9518
-5.3038
-5.417
-3.1906
-6.0389
-5.4037
-3.4465
-6.069
-5.1868
-3.9338
-5.2448
-5.2292
-4.7938
-4.8497
-4.4714
-4.9666
-4.8962
-3.4571
-3.1902
-6.9896
-3.8333
-4.4445
-3.3889
-6.8451
-2.5891
-4.4916
-5.2959
-4.9401
-4.9097
-4.6449
-4.5912
-5.9249
-3.3452
-7.5114
-4.6631
-3.3591
-7.6839
-2.9179
-5.2596
-5.451
-2.9395
-7.1172
-4.9892
-5.2013
-2.2633
-6.7704
-5.9785
-2.6427
-7.3373
-3.3443
-4.3442
-4.9409
-5.534
-4.744
-3.4619
-7.1725
-5.7751
-2.5022
-4.873
-6.5445
-4.6177
-3.5027
-5.8187
-5.711
-3.6735
-6.7377
-3.7452
-5.3002
-6.3128
-4.4567
-2.891
-5.8412
-3.4576
-2.0022
-6.0431
-6.259
-4.3012
-3.9726
-6.6681
-4.2125
-3.6955
-6.3444
-4.4509
-4.4917
-5.8504
-3.5139
-6.401
-4.1243
-2.6872
-7.395
-2.5025
-5.5173
-5.2787
-3.2638
-5.9717
-5.6331
-5.8345
-4.8943
-3.0472
-5.1188
-5.5387
-3.0134
-4.6713
-4.3912
-4.8946
-4.0643
-5.3169
-6.334
-4.6174
-4.5985
-4.7568
-3.9074
-4.6122
-6.9891
-4.8174
-3.6267
-3.3616
-5.8211
-2.6545
-6.7077
-4.8139
-3.6224
-4.4002
-6.8086
-4.8253
-5.4932
-5.4234
-4.2474
-5.0829
-3.5694
-4.2533
-6.9596
-1.4698
-5.5333
-6.6663
-4.3196
-4.2124
-6.5715
-3.923
-5.8736
-4.3983
-5.2059
-5.0566
-6.1726
-5.2753
-5.4682
-5.3443
-5.6397
-3.5493
-4.3643
-5.6412
-5.3516
-4.6124
-3.548
-5.1487
-5.448
-1.9785
-6.9224
-4.4604
-5.0572
-5.1345
-4.4012
-3.2587
-4.3721
-6.0666
-5.4152
-4.5341
-4.7933
-3.7627
-4.5703
-5.943
-2.8084
-5.6249
-4.8879
-4.7605
-3.0937
-5.869
-3.5157
-4.7731
-4.9165
-6.1203
-3.5964
-4.8998
-5.9098
-4.2431
-4.692
-4.0096
-4.5727
-6.0209
-3.6513
-5.461
-3.3388
-5.7006
-5.2031
-2.5077
-5.1816
-5.0577
-4.1883
-3.4176
-4.5923
-5.4504
-5.0046
-6.2705
-3.9818
-6.45
-4.7832
-3.7758
-6.2649
-4.7915
-2.7607
-5.9993
-5.5109
-4.766
-1.4891
-7.1744
-5.0022
-4.4151
-4.433
-4.7178
-4.8441
-4.9486
-5.0233
-5.0889
-3.9128
-5.2319
-5.1602
-4.3006
-4.4896
-5.0324
-5.0747
-3.2195
-6.0075
-4.8413
-4.1032
-7.0845
-3.7169
-4.7915
-4.7362
-4.7471
-4.3771
-4.4822
-4.8077
-5.714
-5.877
-4.2759
-4.0444
-3.0676
-7.7568
-4.3279
-4.6696
-4.1349
-5.4374
-4.2869
-4.0134
-7.1734
-4.4812
-3.105
-7.2532
-3.829
-5.0406
-4.7891
-5.2568
-2.2375
-7.2548
-4.5861
-5.1124
-3.6774
-4.7401
-4.1378
-1.8461
-6.9734
-6.9637
-3.9791
-3.7144
-6.376
-4.864
-3.7274
-6.0942
-3.5688
-6.127
-5.1879
-4.9094
-4.6396
-2.6617
-5.5484
-5.8771
-2.7853
-7.0151
-2.8858
-4.8856
-5.6862
-4.1459
-4.0786
-6.3208
-4.4375
-4.3297
-3.6285
-7.1653
-6.3886
-1.2929
-4.6485
-6.8653
-3.856
-3.9661
-6.389
-4.7894
-3.0694
-6.3151
-5.0097
-5.3589
-2.3878
-7.0551
-2.879
-4.3186
-5.0535
-6.1398
-4.6362
-6.0762
-5.2489
-3.6959
-6.1664
-2.3386
-5.4519
-5.0506
-3.3773
-5.5219
-5.3836
-4.288
-4.8729
-4.1273
-5.2156
-5.7754
-3.0468
-4.4386
-6.4624
-5.2872
-4.5718
-3.1036
-4.6804
-5.3871
-3.9063
-5.1199
-5.1946
-2.8581
-4.5614
-5.0595
-6.2989
-4.6078
-4.3247
-5.1387
-4.6213
-5.8064
-3.8291
-6.0296
-4.6341
-5.1097
-5.1514
-4.9132
-4.1992
-6.3617
-4.7199
-5.7667
-5.1537
-1.5357
-8.0119
-4.0771
-4.9788
-6.3857
-2.922
-4.8658
-3.8705
-4.9774
-4.7142
-4.4078
-5.795
-4.7458
-5.9863
-3.8631
-3.9275
-6.2605
-4.5447
-4.0164
-4.3399
-5.8953
-5.2399
-4.3964
-3.7651
-4.1038
-7.1292
-3.3422
-4.1019
-5.2396
-3.8071
-4.1476
-5.8621
-6.0721
-2.464
-6.2384
-4.4966
-4.7809
-2.6485
-5.6734
-5.915
-4.4791
-5.1743
-4.7827
-4.1333
-4.4588
-3.0332
-6.027
-4.6092
-5.0342
-5.422
-4.842
-6.3535
-2.4511
-4.412
-8.1457
-2.6537
-5.8622
-6.1417
-3.3554
-5.2954
-5.1634
-2.5135
-5.5443
-5.0195
-3.6034
-7.4437
-2.7262
-4.6697
-4.2754
-3.9226
-4.7247
-4.1237
-5.1964
-2.3875
-6.8267
-3.516
-6.3912
-3.697
-3.6496
-5.059
-3.1223
-5.4862
-4.2841
-6.1838
-1.975
-6.2512
-4.551
-5.4867
-5.3389
-5.5281
-5.8107
-4.5155
-4.5202
-5.8245
-3.3916
-5.1467
-4.0348
-4.4651
-4.5662
-5.8815
-4.9316
-5.5149
-3.2179
-5.3257
-6.7801
-2.1208
-6.4945
-4.6311
-4.0461
-3.4623
-4.9034
-8.0487
-2.0926
-7.0775
-6.5754
-1.9031
-4.7704
-6.5241
-1.8604
-5.5101
-4.9082
-4.7226
-5.441
-5.0318
-5.5082
-6.3661
-3.9826
-3.4796
-6.7531
-3.5641
-3.691
-8.359
-4.2815
-2.6568
-5.4462
-5.9788
-4.969
-4.713
-4.3714
-4.6155
-4.4543
-5.5809
-4.8635
-4.5633
-4.2573
-4.6206
-5.0608
-4.8099
-5.4281
-4.7854
-5.8948
-3.6652
-5.7451
-4.3818
-5.0814
-4.9793
-3.0888
-5.4008
-5.5566
-3.7429
-5.4912
-4.3133
-4.7195
-6.0203
-3.9264
-5.6643
-6.9071
-2.1174
-7.198
-4.607
-4.7603
-5.2145
-3.5711
-3.9818
-6.3514
-3.5539
-5.574
-4.1797
-5.0601
-4.2674
-4.0354
-5.8346
-5.2735
-2.1594
-7.6823
-3.4273
-4.8475
-6.674
-3.9415
-5.624
-4.3238
-4.9954
-3.8237
-4.4767
-5.7594
-3.5161
-7.6892
-2.6302
-5.8423
-7.0531
-2.1724
-5.6231
-6.2612
-2.5984
-4.8718
-4.342
-7.0647
-3.4345
-3.8014
-6.3906
-6.107
-2.1113
-5.0645
-5.1486
-5.9369
-3.442
-6.088
-4.515
-4.315
-4.8125
-6.0427
-3.4515
-5.3312
-5.7083
-3.0969
-6.9057
-3.8581
-3.7997
-7.3362
-3.9329
-4.9079
-4.5268
-6.2992
-2.163
-6.5651
-5.173
-2.815
-5.2156
-3.7905
-4.009
-8.265
-4.1361
-2.8227
-7.1141
-5.0081
-2.2469
-4.7872
-5.6889
-4.4914
-5.5238
-6.3658
-3.1795
-4.9759
-6.7287
-3.7437
-4.212
-4.6146
-3.751
-5.3132
-4.8571
-5.0949
-4.4822
-5.7506
-5.348
-3.9091
-6.6509
-4.3329
-4.4404
-5.8398
-5.1291
-5.5209
-3.7157
-8.0911
-3.0462
-5.0014
-4.9799
-5.9259
-3.2109
-6.8333
-4.2345
-2.9724
-5.7547
-4.8639
-2.2416
-7.4487
-4.411
-5.6001
-4.7563
-3.6475
-3.575
-6.7197
-2.7235
-4.7023
-4.8599
-4.5478
-5.2927
-6.167
-3.5529
-3.8994
-5.6152
-3.7427
-3.1266
-7.136
-7.3911
-0.52841
-6.6323
-5.662
-4.5132
-6.5029
-5.3456
-4.2418
-2.9806
-4.5011
-5.0971
-3.1629
-5.0504
-6.668
-3.5254
-5.2352
-6.2149
-3.7607
-4.7098
-4.6013
-5.528
-4.1535
-5.8433
-5.7587
-6.3301
-1.9171
-6.0732
-5.4806
-3.7385
-5.5586
-5.1573
-4.404
-7.7604
-1.2649
-7.966
-5.4066
-5.1303
-6.6398
-4.0377
-5.5299
-6.4113
-4.7095
-4.4469
-7.3858
-4.7865
-3.6081
-5.6648
-5.6518
-4.1327
-3.2059
-6.5528
-5.1342
-3.9717
-4.4826
-4.4267
-3.7537
-7.4368
-3.5988
-2.6171
-6.9744
-4.3764
-4.0062
-5.2337
-4.1878
-4.9551
-5.8773
-3.5969
-7.318
-2.0384
-6.4914
-4.5217
-2.2849
-7.9311
-4.798
-2.234
-5.9563
-5.4083
-4.5743
-3.5771
-7.8185
-2.3807
-5.6471
-5.5293
-3.9628
-5.4272
-5.9015
-4.9131
-4.0152
-4.5732
-5.8013
-5.4084
-3.3764
-5.6524
-5.0455
-4.6483
-5.6944
-4.4883
-4.7262
-4.7371
-3.3012
-6.2948
-3.6698
-5.5532
-6.2405
-4.2617
-2.8241
-4.3592
-7.2864
-2.9996
-4.8273
-5.5577
-3.1482
-4.5337
-6.7375
-4.9067
-5.2875
-2.8478
-5.5337
-5.2264
-3.327
-5.5638
-4.2055
-4.0306
-5.9463
-4.9916
-4.8179
-5.7259
-4.4593
-2.9478
-6.6744
-4.3966
-5.8537
-2.1774
-6.4533
-3.7231
-3.4308
-6.4776
-5.0778
-4.5414
-4.6332
-4.9303
-4.3847
-5.9933
-4.0638
-6.1935
-5.3346
-3.2797
-7.2794
-2.0953
-7.2917
-6.5949
-0.88006
-7.5478
-6.7563
-3.2316
-7.4379
-4.5357
-6.0202
-4.4022
-4.2887
-5.239
-5.1922
-2.9684
-4.6582
-3.6459
-5.3103
-4.7718
-3.0695
-6.6957
-5.3122
-3.7022
-5.5283
-6.5562
-3.9398
-3.4991
-6.7529
-5.7099
-3.3738
-5.5454
-5.8551
-4.9429
-4.5144
-4.556
-4.9895
-5.1131
-5.2007
-3.9842
-4.3309
-6.6871
-3.6781
-4.6652
-4.8194
-5.388
-4.7923
-4.1662
-6.2887
-3.6949
-3.5785
-6.1882
-5.2361
-5.2619
-4.6769
-6.3648
-4.5958
-3.1027
-5.5562
-3.9048
-5.6845
-5.7007
-4.1786
-5.1045
-4.2205
-4.5243
-5.2773
-3.8718
-6.9319
-4.7902
-4.6998
-5.588
-4.6518
-4.9227
-3.8108
-4.0393
-6.773
-2.2519
-7.0053
-4.2826
-2.9844
-5.7448
-5.6338
-4.8454
-4.0844
-5.0243
-5.3614
-4.3421
-3.2015
-6.4751
-4.558
-2.9328
-7.5865
-2.6268
-3.8056
-7.5213
-4.4309
-3.9181
-6.7824
-3.9379
-3.973
-4.409
-4.8383
-3.6174
-6.5727
-3.1299
-4.676
-5.856
-5.2143
-3.9445
-4.1452
-7.7154
-3.3859
-3.8217
-6.1112
-5.8341
-4.4423
-4.2535
-4.8312
-5.7145
-5.5719
-5.288
-2.8576
-7.7079
-4.144
-3.0976
-6.2621
-5.7932
-2.9211
-6.3543
-4.9348
-4.6601
-5.3736
-3.8215
-4.9691
-4.822
-3.5349
-5.8939
-4.6665
-5.0218
-5.7327
-3.1262
-4.9387
-4.5434
-5.0225
-3.5231
-4.8626
-5.9309
-3.5547
-4.3345
-3.8995
-6.7509
-4.666
-3.081
-7.5152
-3.3932
-3.8416
-7.62
-3.5545
-6.6216
-5.3228
-2.4315
-6.5296
-5.6067
-2.0697
-5.1495
-7.1281
-3.3331
-6.4186
-5.0338
-4.1231
-7.6933
-4.1515
-4.7005
-6.5384
-2.7997
-5.1946
-5.5712
-4.4655
-5.8226
-4.2041
-4.7323
-4.0659
-4.3074
-5.4855
-2.7428
-4.269
-4.3742
-6.0197
-5.1649
-4.8265
-4.0966
-5.5884
-4.6213
-4.6234
-5.7813
-4.4857
-4.6402
-6.3519
-5.5799
-3.0905
-5.3306
-6.2284
-3.7599
-7.1189
-5.2057
-1.6257
-4.9306
-5.2921
-5.1314
-5.6989
-3.3502
-7.8806
-2.9628
-4.7789
-6.1795
-4.6559
-3.5397
-6.5445
-4.8467
-4.6796
-4.9566
-5.4379
-5.6156
-3.8329
-6.8054
-5.4921
-1.7558
-6.2102
-3.9839
-7.1106
-5.3637
-3.227
-3.8864
-6.193
-3.4515
-5.4084
-5.1916
-4.8623
-4.9497
-5.5571
-4.025
-4.5775
-4.9049
-5.2008
-3.855
-5.146
-4.9836
-4.9446
-4.8554
-4.8931
-6.2956
-3.0598
-4.1766
-4.7032
-6.2834
-4.0938
-5.6439
-4.1906
-6.3544
-3.969
-6.3445
-2.7757
-6.1845
-5.4194
-3.3559
-5.5436
-5.8186
-2.5436
-4.0606
-6.1115
-3.8668
-5.5349
-4.2765
-5.352
-3.8061
-6.2349
-4.1216
-4.7124
-5.8892
-3.4183
-5.8912
-5.518
-3.4969
-4.4272
-4.3882
-5.1683
-3.1656
-5.0888
-6.9762
-3.2456
-5.4801
-4.6545
-5.4246
-4.0481
-4.4543
-5.951
-3.8544
-3.5301
-5.8497
-5.1027
-5.0186
-3.8271
-6.2525
-4.5472
-5.1497
-5.2806
-4.1613
-3.4365
-6.378
-5.4267
-3.6966
-7.1575
-4.0109
-4.7712
-3.9016
-3.9126
-5.4022
-2.6595
-6.6992
-4.7156
-4.3217
-3.6439
-6.2994
-4.012
-5.3624
-5.2719
-5.6168
-4.2733
-5.7411
-4.9246
-3.743
-5.3941
-6.6448
-3.4659
-3.4354
-5.9953
-5.9367
-3.3171
-5.3603
-3.4381
-4.1252
-4.2828
-5.1754
-4.0552
-6.2312
-4.228
-3.674
-5.2618
-4.0857
-3.8006
-6.0785
-5.8055
-6.5608
-2.4171
-5.4291
-6.5512
-3.6111
-4.8713
-4.2323
-6.1843
-5.0921
-4.9467
-4.4778
-5.2175
-4.1175
-5.6317
-5.9157
-6.7725
-4.3049
-4.9278
-5.8116
-5.9864
-4.6182
-4.7367
-4.8723
-5.216
-4.1667
-5.3416
-3.0623
-3.9541
-3.5208
-5.5368
-4.5713
-6.333
-3.4762
-5.8681
-5.3733
-2.9483
-5.6576
-4.5685
-5.5717
-5.3929
-4.2611
-4.4758
-6.91
-3.2311
-5.6051
-6.8464
-1.65
-4.8701
-6.815
-3.8257
-3.9917
-5.7296
-4.1277
-5.5105
-6.3497
-5.033
-4.1508
-5.8174
-4.8538
-3.4256
-7.178
-3.5098
-5.4402
-3.2804
-4.1963
-7.0065
-3.9163
-5.7683
-4.9169
-4.1072
-6.0575
-4.585
-4.7963
-4.9554
-5.9914
-4.0526
-5.5122
-4.9875
-4.5264
-7.0251
-1.494
-6.3705
-4.7672
-3.0855
-5.2325
-5.1244
-4.5948
-4.7783
-4.5247
-4.4659
-3.3818
-4.4001
-7.9631
-2.1366
-5.6242
-5.2706
-5.3496
-5.1981
-5.8168
-6.9847
-4.2131
-3.2483
-5.2167
-6.771
-4.4021
-4.2107
-7.1332
-2.8091
-3.1931
-6.8337
-4.2711
-4.7857
-4.7976
-5.1114
-5.0691
-3.0258
-5.4825
-4.6425
-3.3697
-6.0595
-5.4959
-3.9158
-6.8569
-4.161
-4.1667
-6.333
-3.8615
-5.4832
-3.5174
-7.4185
-5.2399
-4.3613
-6.5451
-4.9379
-4.7433
-7.343
-1.6687
-6.1225
-5.6177
-3.1555
-5.5791
-4.9896
-3.2631
-6.7929
-2.8167
-3.6469
-6.814
-4.4508
-5.2111
-4.9253
-3.589
-6.834
-2.9896
-4.7556
-5.0516
-3.6511
-4.6904
-4.8958
-3.7718
-6.1636
-3.9725
-3.8675
-7.8693
-3.1754
-3.5768
-5.7242
-6.7657
-3.2077
-5.4349
-4.7784
-3.6403
-4.4643
-4.3276
-5.0025
-2.4535
-5.7902
-5.1579
-1.7475
-6.3968
-6.2657
-4.6507
-3.8971
-6.7755
-5.277
-2.6003
-6.0799
-4.5622
-4.8279
-4.2542
-4.1421
-6.865
-2.6337
-4.6759
-5.9493
-4.3456
-5.8229
-3.972
-5.6389
-4.1158
-3.9083
-6.1255
-4.2639
-3.952
-5.0751
-5.0543
-5.2196
-4.3172
-4.1465
-4.151
-5.4611
-5.2904
-3.7544
-6.2379
-3.4835
-5.7492
-5.4259
-2.7888
-6.0418
-5.7558
-4.3325
-5.2507
-4.3502
-5.796
-4.6196
-4.5204
-7.5596
-2.5109
-5.2429
-4.5622
-4.5813
-6.0834
-4.0497
-4.2984
-4.036
-6.3665
-3.9937
-4.0657
-5.2458
-5.5801
-2.7395
-5.4704
-5.0674
-4.0583
-4.9177
-4.8323
-2.9748
-4.921
-6.1359
-4.655
-4.7766
-3.9448
-8.1404
-3.6768
-1.0807
-9.0607
-5.1646
-1.3826
-6.1219
-6.7396
-2.0723
-4.681
-5.0928
-4.8268
-4.275
-5.1977
-4.8911
-0.96771
-7.7533
-4.2212
-3.7631
-6.6648
-4.0896
-3.9737
-6.7583
-3.2628
-6.2371
-4.6435
-3.9759
-4.3169
-6.8238
-1.9109
-5.5068
-6.3876
-4.4894
-4.526
-5.0322
-3.1274
-6.5421
-2.1361
-5.5448
-4.0974
-5.7172
-4.2252
-5.5217
-4.7658
-3.6461
-6.088
-4.0198
-4.4169
-5.0872
-5.4307
-5.065
-3.9897
-5.3935
-5.7027
-4.6603
-3.6268
-5.3886
-4.9058
-4.179
-5.9457
-6.2306
-3.6242
-5.0798
-4.7304
-5.4322
-4.2726
-3.4266
-7.8494
-2.7565
-6.2065
-4.393
-4.5471
-4.8863
-5.0213
-6.4474
-4.2473
-4.466
-3.8925
-6.5397
-5.0007
-3.5416
-5.4159
-6.6296
-3.262
-5.7813
-3.1525
-6.4928
-4.1687
-4.0208
-5.0486
-3.8328
-4.0323
-6.3075
-5.5241
